"wavelength","2","3","4"
350,0.101048942526042,0.0971472413398075,0.0963204185391994
351,0.101835916002987,0.0979472734390659,0.0971221004988018
352,0.10272444313605,0.098743699360551,0.0980238035065525
353,0.103553663419592,0.0996440803100433,0.0988642112633814
354,0.1045758901399,0.10068497120927,0.0998835255554631
355,0.105713016301734,0.101825853713051,0.101071900371736
356,0.106908205474999,0.103053329638457,0.102370473375966
357,0.108234513172202,0.104427371103683,0.103700531508146
358,0.109725345981493,0.105896077684574,0.105192338577004
359,0.111362731160663,0.107541651207847,0.106854536195786
360,0.113093223207348,0.109403659774707,0.108636240330365
361,0.114818849534538,0.111220541311074,0.110435865523099
362,0.116587031561104,0.113005704304822,0.112269766705294
363,0.118418548770733,0.114852003676567,0.114144687506342
364,0.12031441278655,0.116863054532065,0.116061641442412
365,0.122301832906814,0.118782812090687,0.118046355833837
366,0.124336281667577,0.120788193552914,0.120103422144059
367,0.126448443743854,0.122998663986553,0.12227137740034
368,0.128773301799028,0.125370437590951,0.124628344284126
369,0.131358995633423,0.127974768010384,0.127270547172267
370,0.134178568884666,0.130882193920673,0.130171125338962
371,0.137205652327747,0.134099253755907,0.133291276532586
372,0.14049188802084,0.137441484540197,0.136682466731924
373,0.144173180967748,0.141142446058621,0.140386878265435
374,0.148139815041015,0.145158203920283,0.144359189493079
375,0.152192174006757,0.149314621337568,0.148521073135133
376,0.156473565451159,0.153606054116169,0.152858392616221
377,0.161104190222392,0.158305735756195,0.157518572551504
378,0.166086238109578,0.163443806343255,0.16255004610682
379,0.171315131171164,0.168762018489453,0.16789185977835
380,0.176965160383493,0.174522097840034,0.173635459636588
381,0.18312079488142,0.180756110656969,0.179854343866786
382,0.18994139625199,0.187619293257661,0.186734442471584
383,0.197795727275732,0.195695907915313,0.19472807047787
384,0.206613302634557,0.204620189523719,0.203649803758678
385,0.215975532658044,0.214025194193626,0.213063505625457
386,0.225566114492953,0.223760405029418,0.222683291905245
387,0.236037547491801,0.234352418622155,0.233174382465678
388,0.247047702038945,0.245416691446136,0.244282233113055
389,0.258421537477313,0.25682475021959,0.255804575068154
390,0.270425339292042,0.268958702289926,0.267880074240352
391,0.283941824453167,0.282604126599187,0.281522347721402
392,0.29956365900459,0.298370244247604,0.297232589922427
393,0.317440355123839,0.316425410501124,0.31512634210544
394,0.337110540615407,0.336293419627247,0.334907326519102
395,0.357931685933248,0.357308213359625,0.355834996487414
396,0.379543499710581,0.379085947162617,0.377551687764581
397,0.401596592415167,0.401275564872628,0.39971646478922
398,0.423285810945291,0.42315886922818,0.421409197607236
399,0.44428211588148,0.444284977568012,0.442434983229257
400,0.464768030439435,0.4648570631394,0.462974485378646
401,0.485377051951465,0.485628467532764,0.483564739136512
402,0.506586935452848,0.506993334193532,0.504828212282726
403,0.528366725314834,0.528917884654908,0.526684415205211
404,0.550772216186608,0.551479801381952,0.549154177434576
405,0.574135943753392,0.575070071097265,0.572623925612382
406,0.598424656939854,0.599518652933132,0.596973499825388
407,0.623002134538105,0.624223301044341,0.621591926290169
408,0.647022800087422,0.648408048773596,0.645679583367559
409,0.670067811545954,0.671587780729433,0.668762840893165
410,0.691703157460517,0.693331900240975,0.690419973264839
411,0.711702757615501,0.713421558094655,0.710444512778664
412,0.730037003950287,0.731835763911647,0.728825974372915
413,0.746604809804238,0.74850961781247,0.745426119617947
414,0.761656871586759,0.763631068371799,0.760482834947534
415,0.775316332958504,0.77729539304294,0.774119176759715
416,0.787349509200158,0.7893504040126,0.786115291032634
417,0.797928671600879,0.799907524315145,0.796652441300449
418,0.807278551011387,0.809207621439189,0.805958915882838
419,0.815565378059187,0.817453894917173,0.814202594566399
420,0.82266713405156,0.824519428695121,0.821274290860241
421,0.828798304445558,0.830571048561471,0.827331240225059
422,0.834097963988498,0.835758868123312,0.832528282197854
423,0.838619836683926,0.840202754900413,0.837003432008875
424,0.842489136159448,0.843978836985967,0.840810110842509
425,0.845873771800465,0.847267540603649,0.844116014240438
426,0.848919195649103,0.850222414897256,0.847084549798062
427,0.851700582970985,0.852882994171763,0.849823005123323
428,0.854253563588828,0.855350430491394,0.852328557582948
429,0.856644090649361,0.857660706450641,0.854644476224508
430,0.858921693398119,0.859804587771942,0.856818258697434
431,0.861028056875895,0.861769048577744,0.858863186681146
432,0.862916913206454,0.863556591054901,0.860685327004007
433,0.86461139712429,0.865168208044188,0.862286535864728
434,0.866195649981003,0.866597783399396,0.863769013048819
435,0.867704432424893,0.867986384149205,0.865192234727862
436,0.869108815074404,0.869310201711272,0.866546469584826
437,0.87043870929936,0.870571218224636,0.867853667736707
438,0.87188084047561,0.871902311497317,0.869230425091976
439,0.873289805946535,0.873198132364886,0.870588657468344
440,0.874642512953838,0.874440674486409,0.871897193144193
441,0.875983330535163,0.875665938615517,0.873166018033296
442,0.877329190346825,0.876917402678446,0.874434376610915
443,0.8786273970317,0.878115796623108,0.875638917667888
444,0.879845417193207,0.879226945002956,0.876768521247521
445,0.880992155901648,0.880294261458211,0.877894869843341
446,0.882170422883161,0.881401122649228,0.879045500360682
447,0.883381337946174,0.882511026425201,0.880208925635843
448,0.88458425345475,0.883577451256625,0.881354421774026
449,0.885696894134064,0.884628428491988,0.882427045865866
450,0.886783759542912,0.885659444448063,0.88347933548016
451,0.887895084382386,0.886689957940966,0.884538256223183
452,0.889057191048329,0.887751231363515,0.885613649684279
453,0.890138159619637,0.888815683883375,0.886692744176335
454,0.891245907789196,0.889876817760146,0.887771532864173
455,0.89241652362455,0.890926834827935,0.888846540266088
456,0.893516492940844,0.89194861321287,0.88991195471241
457,0.894584796531478,0.892953846049342,0.890927631286972
458,0.895621990279288,0.893915736682107,0.891900254559632
459,0.896631223262334,0.89482614119611,0.892859269126364
460,0.897635757969087,0.895774082597911,0.893830211882042
461,0.898619308348074,0.896712676869898,0.894790062826067
462,0.899590660343314,0.89761871355607,0.895724842240876
463,0.900575422073872,0.898495075945389,0.896634385200283
464,0.901543315467219,0.89939716785921,0.897596659713003
465,0.902497996874432,0.900303484900011,0.898551101941496
466,0.903441497511919,0.901187377146307,0.899456858122632
467,0.904348540134388,0.902025861052747,0.900354514574991
468,0.905260557340098,0.902896493108473,0.901243382817222
469,0.906180218966964,0.903778209798174,0.902119793743387
470,0.907085525434923,0.904619063492658,0.902978577002174
471,0.907899340065725,0.905422424447719,0.903810090756097
472,0.908717462522804,0.906203255715712,0.904615823818793
473,0.909551944827313,0.906958993201556,0.905402468098472
474,0.910318721475265,0.907667366431195,0.906176894087543
475,0.911057341508187,0.908386174938248,0.906920819731029
476,0.911851283345653,0.909135412936511,0.907686125012005
477,0.912715196365599,0.909901228833606,0.90848811703025
478,0.913459783860009,0.910604140533478,0.909206010206025
479,0.914173835228088,0.911296261444658,0.909915021309991
480,0.914880702858174,0.911984153488618,0.91061540937552
481,0.915570402557272,0.912649292145334,0.911276336269926
482,0.916206466157183,0.913247823156314,0.911909902704532
483,0.916856775365032,0.913851873999571,0.91255033138136
484,0.917551744895495,0.914516850519485,0.913234711348889
485,0.918246161547194,0.915252118624998,0.913996360665938
486,0.918950570516404,0.915991628109374,0.91473584290585
487,0.919662348606437,0.916690342038082,0.915449315503135
488,0.92036021385031,0.917313385058133,0.916130583964883
489,0.920973017876752,0.917825449498269,0.91664131378902
490,0.92154779117895,0.918332209398894,0.917174710394148
491,0.922111943346927,0.918875093124542,0.917761431954624
492,0.922676786047039,0.919443748897322,0.918319101398788
493,0.923235484439209,0.919992792309901,0.918859861907303
494,0.923794451380279,0.920511458653643,0.919373688041827
495,0.924355559372625,0.921007674762734,0.919873797786911
496,0.924921260788172,0.921522862933102,0.920437496624104
497,0.925445122695285,0.922009128251835,0.920921968189882
498,0.925960506956348,0.922486842530496,0.921397846046226
499,0.926508061279156,0.922990993170176,0.921970361958042
500,0.927004173059664,0.923506387084756,0.922494335223128
501,0.927507301176939,0.924014500995332,0.92299783992519
502,0.928036121089639,0.924501901478032,0.923498756203942
503,0.928558840015137,0.924962407999471,0.923992698476273
504,0.92902249020448,0.925351608388631,0.924384131079246
505,0.929454409619443,0.925734865469061,0.924779152512543
506,0.929890779653417,0.926164696659241,0.925252785760802
507,0.930332884926034,0.926593099481872,0.925676830912478
508,0.930751139791303,0.927015335057355,0.926100323834751
509,0.931160054229515,0.927413052867307,0.926518426136011
510,0.931588500088319,0.927773112004926,0.926905138357855
511,0.931988178576087,0.92818193769753,0.927297580425351
512,0.932370591738717,0.928578142945448,0.927690802932647
513,0.932757040245347,0.928939976443648,0.928079841372362
514,0.933175240993035,0.92932953479408,0.928467898743761
515,0.93357603926272,0.92968861740005,0.928817100120287
516,0.933972112045628,0.930071961033421,0.929190687875737
517,0.93437782143048,0.930521679580925,0.929638023463628
518,0.934761027715357,0.930909097590618,0.930037035226761
519,0.935087525506342,0.931224958050866,0.930392248254857
520,0.935360872740421,0.931473309971049,0.930691199656234
521,0.935622493340106,0.931678608930458,0.930922221838943
522,0.935886704740584,0.931913556992675,0.931171443141628
523,0.936169444962232,0.93216263941666,0.9314269337007
524,0.936477058544266,0.932421372067861,0.931687074863485
525,0.93680262872957,0.932749919778625,0.932014104599224
526,0.93710566412227,0.933070818141118,0.932354356048358
527,0.937392265549384,0.933385074538419,0.932677484003986
528,0.937684748898203,0.933706606076908,0.93296157309229
529,0.937951367692341,0.93389860074104,0.93316622894495
530,0.938200214433727,0.934083948430169,0.933384964009454
531,0.938464357602057,0.934328282793079,0.933659391254211
532,0.938796708622994,0.9346042551312,0.933956791577757
533,0.939099979828948,0.934899319035763,0.934263956011169
534,0.939388303606725,0.935173490615589,0.934552722296228
535,0.93969210790739,0.935408970840324,0.934808189429627
536,0.939995822637886,0.935679186452078,0.935065097833179
537,0.940281780692117,0.935962764135354,0.93532846675385
538,0.940561565523289,0.936272827553182,0.935610779744778
539,0.940858995829531,0.936632159707314,0.935922488458601
540,0.941148995823427,0.936954961709406,0.936248918083101
541,0.941436712557304,0.937234604164954,0.936567630519421
542,0.941735823480921,0.937484754363054,0.936863744129033
543,0.94207282428831,0.937728784156072,0.937134792259373
544,0.942338903517683,0.937960223273582,0.937397364639209
545,0.942560756058662,0.938169016935718,0.937656704397072
546,0.942808836023694,0.938359924096968,0.937916368973866
547,0.943098477333703,0.938624497063642,0.938199944568663
548,0.94338304819324,0.938934093410464,0.938489204014667
549,0.943658095916311,0.939258534928427,0.938779989975327
550,0.943968063483861,0.939574773941371,0.939085309125331
551,0.944283240122881,0.939867350057134,0.93937138599793
552,0.944578014146879,0.94012684678907,0.939641371164816
553,0.944836628457357,0.940357991044185,0.939901555030048
554,0.945066684018559,0.940593447660277,0.940136168655859
555,0.945305128271993,0.940867012867733,0.940405792450714
556,0.945580850993697,0.941179793391369,0.940705112108507
557,0.945905858638393,0.941507603605556,0.940991204264813
558,0.946190768412036,0.941804573729581,0.941271261965827
559,0.946443081970435,0.942048866217606,0.941529865446326
560,0.946687163875864,0.942256084549822,0.941767406921112
561,0.946958961505901,0.942505540220929,0.942020883900321
562,0.947219307524405,0.942710774745231,0.942271174354612
563,0.947453274818806,0.942883267705955,0.942509942340533
564,0.947668683361097,0.943069405332015,0.942739137124889
565,0.947935981566021,0.943316348650962,0.942988348671052
566,0.948173574183146,0.9435572437425,0.943232175070967
567,0.948382979828613,0.943784580762167,0.943469516291999
568,0.948647463290398,0.944050106663025,0.943722583022112
569,0.948892982162808,0.94430027996041,0.943939416012981
570,0.949129956199833,0.944552913799309,0.944187231837863
571,0.949366644912261,0.944812043856331,0.944489260623358
572,0.949563637687115,0.945010514881483,0.944685513859692
573,0.949727295307132,0.945158417502077,0.944853492691996
574,0.94988034792736,0.945293478858586,0.945033001905946
575,0.950054499301082,0.945466901077302,0.945242982681774
576,0.950259346750694,0.945694195127099,0.945463606679226
577,0.950462177052483,0.945901298390575,0.945647326952653
578,0.950640451090095,0.946052001619927,0.945789209094491
579,0.950797567487108,0.946183380217823,0.945954218756602
580,0.950932508942377,0.946331458266223,0.946098234374524
581,0.951040605276716,0.946479457347235,0.94622086180653
582,0.951126553814919,0.94660923287539,0.946333576483074
583,0.951231366560631,0.946776684665109,0.946441645871464
584,0.951308635919934,0.94687283055271,0.94652026123218
585,0.9513845963216,0.946930001390468,0.946606177167896
586,0.951536854068339,0.947084685597247,0.94677483783726
587,0.951673149886949,0.947194894569754,0.946894741230183
588,0.951765155303747,0.947259974280214,0.946963003147127
589,0.951834616887918,0.947317837878354,0.947020687497463
590,0.952004358111999,0.947445433182293,0.947166835422539
591,0.952062733841654,0.947489866479403,0.947201871367661
592,0.952028378000808,0.947489446340387,0.94717411699831
593,0.95202016681343,0.947553982318499,0.94722319325714
594,0.952060668320738,0.947651777188508,0.947305755312618
595,0.95211750419369,0.947763206900301,0.947397884093979
596,0.952155463557004,0.947856628958107,0.947476733504716
597,0.952145099255931,0.947888982240443,0.947523077518175
598,0.952133705804247,0.947897519532026,0.947561788253081
599,0.952140979352827,0.947927663658133,0.947615095860916
600,0.952165832157807,0.947993320279019,0.947683136623095
601,0.952165541751214,0.947990676954156,0.947694707772162
602,0.952145433392945,0.94799583472271,0.947692047692667
603,0.952127300784995,0.948018370898964,0.947702859556466
604,0.952137315153487,0.948020581726067,0.947735889996716
605,0.952120097740645,0.948009537452465,0.947730909118886
606,0.952083785605796,0.947979845706853,0.947691650836883
607,0.952041562928555,0.947958301369722,0.947646926295677
608,0.951993848556483,0.948041625414096,0.947654515787779
609,0.95200409070305,0.948147923957814,0.94771492066016
610,0.95202736782265,0.948188080477235,0.947765626025557
611,0.952001193831176,0.948113743276587,0.947742290312433
612,0.952022223103996,0.948106710474847,0.947727512260899
613,0.952025158164937,0.948134796798248,0.94768938277029
614,0.951982130435412,0.948164962782777,0.947636761825238
615,0.951917370653435,0.94817755758721,0.947628005109059
616,0.951904408072917,0.948186397416699,0.947664294721943
617,0.951909418160771,0.948189969707167,0.947708803365058
618,0.951900157244831,0.948183132760754,0.947733893471813
619,0.951926698618508,0.948150836376518,0.947773323372625
620,0.951982504256848,0.94818110244374,0.947794966409092
621,0.952019091633099,0.948243502760477,0.947793407090123
622,0.951985044170674,0.948253688354446,0.947785748174343
623,0.952036821263969,0.9482852945678,0.947851394487891
624,0.952067931804302,0.948309083651818,0.947908818205135
625,0.952045128749413,0.948326220973165,0.947926224604758
626,0.952105017686022,0.948408244805199,0.94798612906454
627,0.952204520184693,0.948449711095069,0.948033727607234
628,0.952312563723361,0.948469655036437,0.948075142459505
629,0.952391904087299,0.948513402439258,0.948121731850398
630,0.952376997078479,0.948560772825679,0.948127401864706
631,0.95230510331616,0.948564438508171,0.948091425653133
632,0.952239535492435,0.948543167589935,0.948055697618481
633,0.952253135830786,0.948572680670046,0.948089580859048
634,0.952272933839558,0.948683315716028,0.948126395746513
635,0.952253084278459,0.94877889930011,0.948135721841897
636,0.952201376526058,0.948789996856153,0.948116943124082
637,0.952242030291442,0.948757936765543,0.94812056299239
638,0.952261174693728,0.948687942706974,0.948131349725933
639,0.95226453036986,0.948647166055317,0.948156978160624
640,0.952300347178898,0.948701182644313,0.948206101419417
641,0.95234886586504,0.948744129282676,0.948238055848613
642,0.952378744997576,0.94875206397431,0.948260705703609
643,0.952386801863513,0.948745765963146,0.948276819830195
644,0.952405950988269,0.948790097438647,0.948278516380281
645,0.952422285862833,0.948823437558918,0.948288634440014
646,0.952478238177022,0.948888927309828,0.948347394234554
647,0.952590579334134,0.948994690231391,0.948445412601419
648,0.952657676474689,0.9489429445927,0.948392849227233
649,0.95265253442424,0.948901042337251,0.948372778398239
650,0.952639998385193,0.948932132971927,0.94840695367785
651,0.952727968662294,0.949019746002416,0.948420421599648
652,0.952812194784195,0.949118762488627,0.948513283051488
653,0.952891510624382,0.949185974641035,0.94860548185544
654,0.952954629655994,0.949197625265122,0.948640553383472
655,0.952942788160394,0.949147386693771,0.948626346936944
656,0.953003179629634,0.949197239754744,0.948741918579001
657,0.953129563968489,0.949327038911293,0.948943458351268
658,0.95323533708031,0.949421782777419,0.949069214794018
659,0.953271897819134,0.949416858509693,0.949041713553062
660,0.953329440924366,0.949420892008963,0.94903674084224
661,0.95341122854133,0.949446952986413,0.949086020899272
662,0.953448069566249,0.949434120345629,0.949105863752657
663,0.953508529967687,0.949478987800218,0.949154712284919
664,0.953594146357259,0.949552355207282,0.949217233028977
665,0.953693072587886,0.949609524816026,0.949271633864275
666,0.953797036728747,0.949616465461062,0.949308774372104
667,0.953875846040869,0.949684862185906,0.949373836751521
668,0.953942212003498,0.949767708566883,0.949430560179042
669,0.954023316208764,0.949773025485442,0.949433304883191
670,0.954111806835682,0.949792744524753,0.949510206561376
671,0.954204924597219,0.949844514163512,0.949626039514977
672,0.954296165186478,0.949916702009548,0.949741258422434
673,0.954374318098224,0.949969954029989,0.9498260530899
674,0.954483404805943,0.950046787076437,0.949925020732335
675,0.95455489048983,0.950111955974396,0.94999012258522
676,0.954552307932363,0.950149939002646,0.949998116925655
677,0.954611346022554,0.950264713175906,0.950068156140148
678,0.954656474271854,0.95032151553297,0.950069406082982
679,0.954696121790128,0.950322798904493,0.950050345594632
680,0.954775277332343,0.950340292019111,0.950135090999382
681,0.954835974685939,0.950316689500904,0.950176813222341
682,0.954877201874235,0.950279065065486,0.950174496618857
683,0.954911310966412,0.950262137506268,0.950162555550381
684,0.954960547082915,0.950300277896629,0.950202770801371
685,0.955002308569671,0.950291082812809,0.950231863292758
686,0.95509294678518,0.950283519738396,0.950275704747227
687,0.955278109788161,0.950358251687793,0.950376663851471
688,0.955422743646165,0.950528370274806,0.950521519544845
689,0.955474755375242,0.950623218364851,0.950590547594985
690,0.955422071961553,0.950561066850523,0.950519996421154
691,0.955298102559013,0.950372318792919,0.950323322391225
692,0.955196945707128,0.950194500203774,0.950121282846834
693,0.955112785163114,0.950064943843532,0.949970244305126
694,0.9550238041131,0.94996532063202,0.949873070703823
695,0.954910551169669,0.949814957101671,0.949768311793575
