"wavelength","CAL1","CAL2","CAL3"
350,0.0788576683309125,0.0719507786224726,0.0610775963356588
351,0.0793755369043648,0.0724285258868448,0.0610167121360975
352,0.0798351298970226,0.0728354125252292,0.0608433949991016
353,0.0804740918940665,0.0735041142099289,0.0608481549806555
354,0.0812347646067368,0.0740539558735227,0.0607419614141675
355,0.082122254530806,0.0746260627005721,0.0605788868535931
356,0.0831291350527158,0.0754357816274054,0.0604902966841366
357,0.0841559316170493,0.0762765284171628,0.0604836680151027
358,0.0853132502149087,0.0771671437811551,0.0604609159672891
359,0.0866168305476742,0.0781259316086463,0.0603639180219572
360,0.0878244777220019,0.0791031232390899,0.0601976860594356
361,0.0892344780670095,0.0802870820474805,0.0601947928491443
362,0.090793650740496,0.081576624207912,0.0602608441147109
363,0.0922590842430732,0.0827106309092545,0.060108502716671
364,0.0938539675947769,0.0839372749563564,0.0599613062279666
365,0.0955666748646179,0.0852565075648377,0.0599016798085837
366,0.0973340910422612,0.0866174429173333,0.0599317074714822
367,0.0990744218377315,0.0879770470928272,0.0598525699344565
368,0.100997328885389,0.0894346008730472,0.0597975035729306
369,0.103152309358729,0.09102482672954,0.0598088358299277
370,0.105273694326195,0.0926576215172688,0.0597626731861609
371,0.107749075394052,0.0944234998055603,0.0597172216266997
372,0.110661863897153,0.0964383434459586,0.059719685744798
373,0.113906466788981,0.0988049080306914,0.0598071790256227
374,0.117464906641297,0.101343382531695,0.0597952685678974
375,0.121237291406678,0.104026987829615,0.0597826771780744
376,0.125113923130508,0.106814627069528,0.0598490837840861
377,0.12915843938959,0.109610262327879,0.0597688861613969
378,0.133468283316127,0.112548101746672,0.0597331537528871
379,0.138131719775296,0.115727327537713,0.0598115546128166
380,0.143097487028859,0.119114187899192,0.0599057235162581
381,0.148405042514753,0.122679296901292,0.0598867077440704
382,0.154191425457293,0.126487243588811,0.0598242676588192
383,0.160707489250113,0.130695365432813,0.059880702873859
384,0.16828654205883,0.135528985461971,0.0599911528649611
385,0.176973405502638,0.141003624352705,0.0600117490869196
386,0.186645652640187,0.147010499939199,0.0598828206668347
387,0.197132312255408,0.153387622684719,0.0598660347709818
388,0.207878716219588,0.159725610270627,0.0598429024964644
389,0.218741869008295,0.165909827648056,0.0597797275268862
390,0.229652045208317,0.17193451489218,0.0597444691449102
391,0.241552761720939,0.1781062746181,0.0596925384492095
392,0.25507670559494,0.184783910232589,0.0596364969690672
393,0.270617052386167,0.192249792218652,0.0596062992523577
394,0.288202436763062,0.200285670584991,0.0595887282995915
395,0.308070391527777,0.20889928310652,0.0595634158572814
396,0.329928954489157,0.217867989785872,0.0595151454323415
397,0.353182804664832,0.226735391790786,0.0594455715816855
398,0.376790635799099,0.235154352003198,0.0593265703364141
399,0.399845345010678,0.242787993002253,0.0591997425658725
400,0.421155250132981,0.249159002473046,0.059177136088304
401,0.442252943839767,0.25482781891523,0.0590845264537696
402,0.463865448490876,0.260119519776988,0.0589966526459876
403,0.48603621832933,0.265124015672588,0.0590333929874678
404,0.508491817502219,0.26960056094173,0.0590212044073127
405,0.531954837885502,0.273793984441574,0.0589716949006562
406,0.557107783474712,0.277909427157954,0.0589164216444332
407,0.582865571207765,0.281638703807832,0.0588813753317954
408,0.60869880496297,0.284976211633689,0.0588239300159388
409,0.633985388418015,0.28788072772702,0.0587495460186193
410,0.658131972151393,0.29028869163177,0.0587245392761945
411,0.680720115142708,0.292235999727399,0.0586545159885993
412,0.701560703662867,0.293781990202108,0.0585689610003839
413,0.72062917057426,0.295000968680328,0.0585364640741603
414,0.738036682533026,0.295949114059961,0.0585093497475176
415,0.753912319138575,0.296673918348463,0.0584682683953634
416,0.768308488396541,0.297204940356006,0.0584131039605742
417,0.781111140988307,0.297534400723732,0.0583947757736594
418,0.792506924922215,0.297734807450815,0.0583678201257952
419,0.802648113946801,0.297850173373122,0.0583191586102714
420,0.811512536690715,0.297889153928584,0.0582798457300252
421,0.81920203313999,0.297845680092692,0.0582429585726145
422,0.825841469647247,0.297739608147217,0.0582031384756639
423,0.831577196418438,0.297599914960329,0.0581542938169131
424,0.836417909124792,0.297386084058011,0.0580916601013499
425,0.840532310741315,0.297154467491957,0.0580547859697849
426,0.844128494753236,0.296952169005991,0.0580645627345651
427,0.84728332794171,0.296725076673022,0.0580290074439758
428,0.850134569480948,0.29646928304315,0.0579954603496873
429,0.852725245190434,0.296179732691775,0.057980162931275
430,0.855002363198387,0.295837807181021,0.0579272119862053
431,0.857101546959066,0.295465337164632,0.0578988140313705
432,0.859031207649488,0.295083517848917,0.0578814775372451
433,0.860710917230989,0.294715432702806,0.057820473004295
434,0.862196910350737,0.294315231139375,0.0577654542627377
435,0.863519983050089,0.293925752161961,0.0577259031908006
436,0.86470643579131,0.29359345611756,0.0577010951175741
437,0.865841832392022,0.293273742518067,0.057692303340737
438,0.866929641494982,0.292899857072024,0.0576567925321507
439,0.867981003775228,0.292464963366779,0.0575890560356009
440,0.869025755811674,0.292093498429512,0.057569617227818
441,0.870037268251055,0.29172701168406,0.057533232729238
442,0.871015269540568,0.291348464595204,0.0574765051557952
443,0.871968154166372,0.290971982288712,0.0574433569138849
444,0.872847212912438,0.290606440467972,0.0574271630021199
445,0.873702155612158,0.290246169597415,0.0574096022740103
446,0.874600059525348,0.289877515045385,0.0573727231058024
447,0.875411471160558,0.289490581340171,0.0573491601859593
448,0.876210107775635,0.289113235187675,0.0573255456920345
449,0.877044154547252,0.2887596356124,0.0572940374495407
450,0.877815251724447,0.288391527646929,0.0572818660663274
451,0.878576911708526,0.288032562321484,0.0572562098978424
452,0.879346109454996,0.287690020019961,0.0572169955872882
453,0.880104646799539,0.287350316897861,0.0572071120334746
454,0.880823306814686,0.286997686973574,0.0571868703397035
455,0.881510767290225,0.286635407532883,0.0571597876888825
456,0.88219633297327,0.286276319170756,0.0571464003894044
457,0.882888419432409,0.285918121778545,0.0571214266034764
458,0.883569299977982,0.285546581864932,0.0571041581696322
459,0.884219591416943,0.285157196385869,0.0571067263637059
460,0.884855985204853,0.284786555660963,0.0570702706471518
461,0.885472521640741,0.284430170925424,0.057034150186877
462,0.886078610889868,0.284085064758402,0.0570218824640205
463,0.886717609458097,0.283761797985578,0.0570278256319821
464,0.887321579829295,0.283433533759261,0.0570092183481917
465,0.887873781516841,0.283088796121356,0.0569710040599188
466,0.88839668508851,0.282723665479808,0.056953755270873
467,0.888988576968142,0.282340752681486,0.0569230925383054
468,0.889586753401288,0.281957772756668,0.0568998965776991
469,0.890092632416579,0.281589623451202,0.0569081976163179
470,0.890578553279662,0.281175129924576,0.0568737362045392
471,0.891068204785951,0.280769593607656,0.0568341399964214
472,0.891561730957734,0.280402346159884,0.0568187052109852
473,0.892007436641856,0.280001316125354,0.056800960447753
474,0.892430348510556,0.279587904963956,0.0567865770333508
475,0.892839435033076,0.279174863130438,0.0567710707874827
476,0.893223021397108,0.278768455007759,0.0567356885954133
477,0.893636245627652,0.278366980382156,0.056724161832342
478,0.894065335873273,0.277955402690193,0.0567216506588483
479,0.89446587869292,0.277518461006703,0.0566896581363459
480,0.894866212668546,0.277117077443462,0.0566501660254106
481,0.895262828253096,0.276733083646036,0.0566217529034408
482,0.895650717152143,0.276340377328264,0.0566150411513415
483,0.896038485811021,0.275959507086212,0.0566112432801281
484,0.896410004827429,0.275561203927313,0.0565953230235384
485,0.896768666775101,0.275136306502082,0.0565683919333068
486,0.897173607582188,0.274719450070533,0.056567142208822
487,0.897529180351691,0.274274142446611,0.0565508657662558
488,0.897838831350351,0.273799332008047,0.0565187604040388
489,0.898181441635836,0.2733197346783,0.0564992647151196
490,0.898457543932675,0.272841461992527,0.0564630663935795
491,0.898706269745171,0.272365218733069,0.0564161095377228
492,0.898993791141091,0.271888860169421,0.0563756608592186
493,0.89923955118849,0.271436526803131,0.0563642038351491
494,0.899491524793589,0.270982453552346,0.0563443589602231
495,0.899778616831933,0.270514261189769,0.0562984653730376
496,0.90003756114107,0.270073317613797,0.0562873078957724
497,0.900263658172158,0.269634986730502,0.0562856676370582
498,0.900479213267396,0.269196998054693,0.0562790863140767
499,0.900750781018874,0.268794055425239,0.0562664201928562
500,0.901021590780549,0.268348279570355,0.0562403213264475
501,0.901267369308716,0.267862061105889,0.0562165329932954
502,0.901478711065175,0.267380741707128,0.0562213716202298
503,0.901715284941928,0.266895177938851,0.0561920493027499
504,0.901945861787974,0.266409443652633,0.0561445378337324
505,0.902129094199162,0.265925924444402,0.0561083845284606
506,0.902278680738293,0.265434786127074,0.0560792887057265
507,0.902447244131669,0.264937742609503,0.0560628217745425
508,0.902651379125479,0.264433376759461,0.0560542837753173
509,0.902825931064239,0.263908211987258,0.0560215808841596
510,0.902974659728602,0.263399836314886,0.0560042944953717
511,0.903134920140271,0.262908257675663,0.0559986906622228
512,0.90339106294981,0.26239622380309,0.0559571946256734
513,0.903593019574705,0.261884853908834,0.0559339157303703
514,0.903758486467318,0.261371974356844,0.055922041664581
515,0.903965234313763,0.260845404506485,0.0558932373351021
516,0.904138204995475,0.260276647097432,0.0558699095513048
517,0.904283647242,0.259679915083369,0.0558481931837736
518,0.904419738827119,0.259069801175052,0.0558186390613476
519,0.904555095654752,0.258411744171421,0.0557641663701169
520,0.904654820484398,0.257758461655013,0.0557223890066773
521,0.904722355753646,0.257140620265071,0.055704134749993
522,0.904835042952259,0.256543594456576,0.0556689947448527
523,0.904941146186707,0.255969728793893,0.055641217797575
524,0.905043133368081,0.255419854895339,0.0556255718420221
525,0.905177159504788,0.254903687573248,0.0556161987538939
526,0.905309871351347,0.254358828840596,0.0555836185046286
527,0.905424241839019,0.253803352602154,0.0555435342395663
528,0.905512154383156,0.253279606051914,0.0555238323923673
529,0.905598533218449,0.25279834886304,0.055516060219928
530,0.905676587579739,0.252335719832653,0.055497866880284
531,0.905744082608354,0.25188159942713,0.0554624068274556
532,0.905829839020102,0.251482288085919,0.055457976939398
533,0.905915224384805,0.251112133346822,0.0554622278683852
534,0.905989882919447,0.250753137403707,0.0554580954759445
535,0.906051096164332,0.250399515688827,0.0554303915699912
536,0.906124900862586,0.25007558610744,0.0554221401607913
537,0.906206118652557,0.249780651414311,0.0554266435762853
538,0.906271073732563,0.249498141734863,0.0554077995885004
539,0.906361095495502,0.249234262962169,0.0554032439752543
540,0.906452446207559,0.248972911821485,0.0554072150193508
541,0.906514303354749,0.248700362112558,0.0554050808863638
542,0.906603105042525,0.248453503507247,0.0554044505991457
543,0.906688653734199,0.248202751389865,0.0554114598894275
544,0.906750729600453,0.247931301303957,0.0554231401003987
545,0.906822224361967,0.247675954701609,0.0554090965927031
546,0.906882404275697,0.247426819761425,0.0553995485369725
547,0.906936400432054,0.247176872820948,0.0554053195102062
548,0.907025879750362,0.246923603883835,0.0554162381059658
549,0.907111026177865,0.246659876895841,0.0554128133088673
550,0.907178671763799,0.246381508071496,0.055403638593893
551,0.907228729882662,0.246086420742729,0.0554124642104272
552,0.907308556948107,0.245780733693616,0.0554232884344259
553,0.907372212235666,0.245458566405377,0.0554299792224077
554,0.907375049780131,0.245117064486093,0.0554304360732195
555,0.907410989519448,0.244790121702977,0.0554333127515887
556,0.907455479013975,0.244451878033375,0.0554389493399978
557,0.907486676227855,0.244091863904712,0.055445836592719
558,0.907510554861187,0.243749886891946,0.0554501842984115
559,0.907553758380408,0.243418884805281,0.0554490045753754
560,0.907618118225434,0.243090896391583,0.0554484472445156
561,0.907677657813512,0.242751436887073,0.0554670600854952
562,0.907734700471507,0.242437698302603,0.0554850626541317
563,0.90778461718702,0.242154650777639,0.0554964213719409
564,0.907821429101266,0.241892937150325,0.0555017601411472
565,0.907847499076579,0.241663910959107,0.055517415201108
566,0.907865858617335,0.241468511676995,0.0555456341123104
567,0.90787990555665,0.241304384059558,0.0555812455068973
568,0.907897113539768,0.241163196580487,0.0555993219807045
569,0.907889854872401,0.241051142974482,0.0556233585129155
570,0.907850935166883,0.240970639136653,0.0556614367561452
571,0.907817990185392,0.240912472545227,0.055680077614217
572,0.907805703099213,0.240886260635266,0.0556985517435493
573,0.907810642969047,0.240891213370233,0.0557253265510313
574,0.907809536494494,0.240917023359555,0.0557615489873453
575,0.90780891660658,0.240966298834961,0.0557980257353578
576,0.907820531092601,0.241033828584406,0.0558311017798329
577,0.907851755770315,0.241111503639478,0.0558597453312979
578,0.907810290464158,0.241196474089862,0.0558878675654238
579,0.907753786176952,0.241283185136165,0.0559188149005204
580,0.907743852357347,0.241365397593624,0.055952077822627
581,0.907740296873485,0.241435359576198,0.0559714681585745
582,0.907728209573859,0.241497522205566,0.055992179721452
583,0.907696805175409,0.241551755915295,0.0560226140876743
584,0.907632359280563,0.241586693876657,0.056057549172382
585,0.90758479350748,0.241614500244488,0.0560976680344381
586,0.907562806512866,0.241643643987299,0.056137950067001
587,0.907545084088219,0.241681742374142,0.0561682258608726
588,0.907478551851689,0.241696318546911,0.0561829713705305
589,0.907388258198285,0.241682619125336,0.0561946098688125
590,0.907328484215249,0.241647031620397,0.0562194324161493
591,0.907300837161127,0.241600002008296,0.0562331205299594
592,0.90727230152522,0.241535321819035,0.0562376281262801
593,0.90721472632881,0.241446333316547,0.0562368957074745
594,0.907138930439697,0.241330819539533,0.0562242108702189
595,0.907064018715599,0.24121859770954,0.0562115652518549
596,0.906999033484717,0.241118764187031,0.056207080101408
597,0.906936499673476,0.241002471575526,0.0562108190769012
598,0.906887322874354,0.240902223015606,0.0562432853376823
599,0.906842377594398,0.240804468974461,0.0562842660947886
600,0.906776264496217,0.240660407305434,0.0562800851728354
601,0.906703334403966,0.240494918696461,0.0562797924209759
602,0.906618095021763,0.240317446268118,0.0562848377005609
603,0.906511869365311,0.24013427437785,0.0562837044845548
604,0.906401917484759,0.239944944691364,0.0562829678062932
605,0.906255529643135,0.239738665248049,0.056283447167891
606,0.906059677542246,0.23951361138301,0.056289055677846
607,0.905883027357514,0.23930311000802,0.0563217607159798
608,0.905717765167126,0.239083259968204,0.0563329262796262
609,0.905570038987952,0.238850063557156,0.0563183590458335
610,0.905480780468765,0.238634301762983,0.0563483162144203
611,0.90534937335292,0.238406797005229,0.056374504794133
612,0.905177282789803,0.238168279457699,0.0563867509752981
613,0.90502823629578,0.237934719294683,0.0563941734720556
614,0.904897694492133,0.237704674126802,0.0564156595889957
615,0.904793038660644,0.237471358767289,0.056437195345501
616,0.904718985868323,0.237228497483682,0.056441549901521
617,0.904666538693541,0.236991733229673,0.0564610987742747
618,0.904611772395946,0.236771686626518,0.0564765713966129
619,0.904536569983834,0.236562882119181,0.0564793488268133
620,0.904433339608261,0.23631576261858,0.0565101002110921
621,0.904353385113868,0.23606466484921,0.0565111251267537
622,0.904318912937728,0.235842902200989,0.0564841890814248
623,0.90431760656497,0.235691870092448,0.0565093540844305
624,0.904381970213144,0.235542786388358,0.0565270448329564
625,0.904473969669571,0.235369013150016,0.0565371652171451
626,0.904518879612553,0.235168308439962,0.0565650454655496
627,0.904619655568752,0.235001057700918,0.056574390206214
628,0.904733964270799,0.234852236899005,0.0565717606161197
629,0.904813924534768,0.234696776118499,0.0565714082979415
630,0.904958522914005,0.234556012337694,0.056573711100241
631,0.905072635295997,0.234419766662379,0.0565825785305002
632,0.905118786682431,0.234279067053169,0.0565918606955627
633,0.905212753515306,0.234128291356959,0.0565689728152159
634,0.905286726649568,0.23399342415447,0.0565560437516927
635,0.905310817690322,0.233866118161203,0.0565582239188641
636,0.90527787269187,0.233704718632647,0.0565486376983654
637,0.905295506123797,0.233554369660259,0.0565419153191669
638,0.905334667963971,0.233437167247843,0.0565526628515904
639,0.905319239132738,0.233359199598918,0.0565893071259238
640,0.905282398526234,0.233232803508188,0.0565795629398517
641,0.905237734788865,0.233088137062303,0.0565576808929299
642,0.905194977080607,0.232959906980054,0.0565583471649097
643,0.905159065738021,0.232811618206633,0.0565436695722835
644,0.905114555962662,0.232701279761423,0.0565425415746235
645,0.905062554091586,0.232631814993053,0.0565603845349711
646,0.905036253087152,0.232501198024983,0.0565588588374243
647,0.905018692549418,0.232368750846984,0.056542708922943
648,0.904992831896545,0.232243219744043,0.0565254733509958
649,0.904938216783199,0.232104986550255,0.056531013215996
650,0.904932688737174,0.231999293291953,0.0565520310144361
651,0.904961508479752,0.231905909335264,0.0565715029987869
652,0.904983578796303,0.23179259957058,0.0565726559343818
653,0.904996177168682,0.231707410414169,0.0565725016794163
654,0.905027897779818,0.231628242898733,0.0565757788110004
655,0.905090736935497,0.231533735427633,0.0565831227576607
656,0.905128143484921,0.231437514316862,0.0565869440926774
657,0.905167659742194,0.231305831108057,0.0565909413560508
658,0.905211645177062,0.231140695821707,0.0565931445698258
659,0.905228524455464,0.230988560319009,0.0565822370983198
660,0.905232733546587,0.230838646416998,0.0565795244328185
661,0.905232637510324,0.230694412076002,0.0565823143106832
662,0.905236050369218,0.230563197214859,0.0565773537217093
663,0.905258922741853,0.230413626626587,0.0565768496479422
664,0.905304301211543,0.230264754010381,0.0565783152052873
665,0.905369706796103,0.230138824927305,0.0565782957870559
666,0.905450223197711,0.230011884380418,0.0565868479086159
667,0.905520528109436,0.229881692398879,0.0565891290480829
668,0.905566353785139,0.229744507686714,0.0565794941268772
669,0.905591307755711,0.229585791313588,0.0565754722302721
670,0.905648542468232,0.229433345138834,0.0565714084090551
671,0.905725218723817,0.229288697803525,0.0565703343572946
672,0.905744167083216,0.229129593755485,0.0565835687091926
673,0.905768039344679,0.228981513726356,0.056582709991193
674,0.905796763424006,0.228832262679681,0.0565738374218356
675,0.905806702265266,0.228657812834759,0.0565746783015916
676,0.905761436194059,0.228462030527964,0.0565796783557476
677,0.905692490432281,0.228273095565452,0.0565888410938131
678,0.905628182136537,0.228103363951477,0.0565967241151567
679,0.905538965361579,0.227895851794833,0.0565742836905714
680,0.905483567772882,0.227686868675063,0.0565545519696122
681,0.905470407124045,0.227499037397038,0.0565518442085918
682,0.905427011561962,0.227336263585369,0.0565527778632855
683,0.905386837014521,0.227176903467208,0.0565506826826685
684,0.905354669882415,0.227020569660023,0.0565480003957254
685,0.905323151057732,0.226877768584047,0.056553450161872
686,0.905291169205026,0.226719698775068,0.0565549288775589
687,0.905240946289814,0.226551117751829,0.0565724778965625
688,0.905161693325167,0.226384184385945,0.0566211913810052
